t [s] | x [m]],0,1.75,3.5,5.25,7,8.75,10.5,12.25,14,15.75,17.5,19.25,21,22.75,24.5,26.25,28,29.75,31.5,33.25
0.001,298,298,298,298,298,298,298,298,298,298,298,298,298,298,298,298,298,298,298,298
0.003,298.001,298,298,298,298,298,298,298,298,298,298,298,298,298,298,298,298,298,298,298
0.007,298.001,298,298,298,298,298,298,298,298,298,298,298,298,298,298,298,298,298,298,298
0.015,298.003,298,298,298,298,298,298,298,298,298,298,298,298,298,298,298,298,298,298,298
0.031,298.005,298,298,298,298,298,298,298,298,298,298,298,298,298,298,298,298,298,298,298
0.063,298.011,298,298,298,298,298,298,298,298,298,298,298,298,298,298,298,298,298,298,298
0.127,298.023,298,298,298,298,298,298,298,298,298,298,298,298,298,298,298,298,298,298,298
0.255,298.048,298,298,298,298,298,298,298,298,298,298,298,298,298,298,298,298,298,298,298
0.383,298.075,298,298,298,298,298,298,298,298,298,298,298,298,298,298,298,298,298,298,298
0.511,298.103,298,298,298,298,298,298,298,298,298,298,298,298,298,298,298,298,298,298,298
0.639,298.132,298,298,298,298,298,298,298,298,298,298,298,298,298,298,298,298,298,298,298
0.767,298.163,298,298,298,298,298,298,298,298,298,298,298,298,298,298,298,298,298,298,298
0.895,298.195,298,298,298,298,298,298,298,298,298,298,298,298,298,298,298,298,298,298,298
1.023,298.227,298,298,298,298,298,298,298,298,298,298,298,298,298,298,298,298,298,298,298
1.151,298.261,298,298,298,298,298,298,298,298,298,298,298,298,298,298,298,298,298,298,298
1.279,298.296,298.001,298,298,298,298,298,298,298,298,298,298,298,298,298,298,298,298,298,298
1.407,298.331,298.001,298,298,298,298,298,298,298,298,298,298,298,298,298,298,298,298,298,298
1.535,298.366,298.001,298,298,298,298,298,298,298,298,298,298,298,298,298,298,298,298,298,298
1.663,298.402,298.001,298,298,298,298,298,298,298,298,298,298,298,298,298,298,298,298,298,298
1.791,298.439,298.001,298,298,298,298,298,298,298,298,298,298,298,298,298,298,298,298,298,298
1.919,298.476,298.001,298,298,298,298,298,298,298,298,298,298,298,298,298,298,298,298,298,298
2.047,298.513,298.002,298,298,298,298,298,298,298,298,298,298,298,298,298,298,298,298,298,298
2.175,298.551,298.002,298,298,298,298,298,298,298,298,298,298,298,298,298,298,298,298,298,298
2.303,298.588,298.002,298,298,298,298,298,298,298,298,298,298,298,298,298,298,298,298,298,298
2.431,298.626,298.003,298,298,298,298,298,298,298,298,298,298,298,298,298,298,298,298,298,298
2.559,298.665,298.003,298,298,298,298,298,298,298,298,298,298,298,298,298,298,298,298,298,298
2.687,298.703,298.003,298,298,298,298,298,298,298,298,298,298,298,298,298,298,298,298,298,298
2.815,298.742,298.004,298,298,298,298,298,298,298,298,298,298,298,298,298,298,298,298,298,298
2.943,298.78,298.004,298,298,298,298,298,298,298,298,298,298,298,298,298,298,298,298,298,298
3.071,298.819,298.004,298,298,298,298,298,298,298,298,298,298,298,298,298,298,298,298,298,298
3.199,298.858,298.005,298,298,298,298,298,298,298,298,298,298,298,298,298,298,298,298,298,298
3.327,298.897,298.005,298,298,298,298,298,298,298,298,298,298,298,298,298,298,298,298,298,298
3.455,298.936,298.006,298,298,298,298,298,298,298,298,298,298,298,298,298,298,298,298,298,298
3.583,298.976,298.006,298,298,298,298,298,298,298,298,298,298,298,298,298,298,298,298,298,298
3.711,299.015,298.007,298,298,298,298,298,298,298,298,298,298,298,298,298,298,298,298,298,298
3.839,299.055,298.008,298,298,298,298,298,298,298,298,298,298,298,298,298,298,298,298,298,298
3.967,299.094,298.008,298,298,298,298,298,298,298,298,298,298,298,298,298,298,298,298,298,298
4.095,299.134,298.009,298,298,298,298,298,298,298,298,298,298,298,298,298,298,298,298,298,298
4.223,299.173,298.009,298,298,298,298,298,298,298,298,298,298,298,298,298,298,298,298,298,298
4.351,299.213,298.01,298,298,298,298,298,298,298,298,298,298,298,298,298,298,298,298,298,298
4.479,299.253,298.011,298,298,298,298,298,298,298,298,298,298,298,298,298,298,298,298,298,298
4.607,299.293,298.012,298,298,298,298,298,298,298,298,298,298,298,298,298,298,298,298,298,298
4.735,299.332,298.012,298,298,298,298,298,298,298,298,298,298,298,298,298,298,298,298,298,298
4.863,299.372,298.013,298,298,298,298,298,298,298,298,298,298,298,298,298,298,298,298,298,298
4.991,299.412,298.014,298,298,298,298,298,298,298,298,298,298,298,298,298,298,298,298,298,298
5.119,299.452,298.015,298,298,298,298,298,298,298,298,298,298,298,298,298,298,298,298,298,298
5.247,299.492,298.016,298,298,298,298,298,298,298,298,298,298,298,298,298,298,298,298,298,298
5.375,299.532,298.017,298,298,298,298,298,298,298,298,298,298,298,298,298,298,298,298,298,298
5.503,299.572,298.017,298,298,298,298,298,298,298,298,298,298,298,298,298,298,298,298,298,298
5.631,299.612,298.018,298,298,298,298,298,298,298,298,298,298,298,298,298,298,298,298,298,298
5.759,299.652,298.019,298,298,298,298,298,298,298,298,298,298,298,298,298,298,298,298,298,298
5.887,299.692,298.02,298,298,298,298,298,298,298,298,298,298,298,298,298,298,298,298,298,298
6.015,299.732,298.021,298,298,298,298,298,298,298,298,298,298,298,298,298,298,298,298,298,298
6.143,299.772,298.022,298,298,298,298,298,298,298,298,298,298,298,298,298,298,298,298,298,298
6.271,299.812,298.024,298,298,298,298,298,298,298,298,298,298,298,298,298,298,298,298,298,298
6.399,299.852,298.025,298,298,298,298,298,298,298,298,298,298,298,298,298,298,298,298,298,298
6.527,299.892,298.026,298,298,298,298,298,298,298,298,298,298,298,298,298,298,298,298,298,298
6.655,299.932,298.027,298,298,298,298,298,298,298,298,298,298,298,298,298,298,298,298,298,298
6.783,299.972,298.028,298,298,298,298,298,298,298,298,298,298,298,298,298,298,298,298,298,298
6.911,300.012,298.029,298,298,298,298,298,298,298,298,298,298,298,298,298,298,298,298,298,298
7.039,300.052,298.031,298,298,298,298,298,298,298,298,298,298,298,298,298,298,298,298,298,298
7.167,300.092,298.032,298,298,298,298,298,298,298,298,298,298,298,298,298,298,298,298,298,298
7.295,300.132,298.033,298,298,298,298,298,298,298,298,298,298,298,298,298,298,298,298,298,298
7.423,300.172,298.035,298,298,298,298,298,298,298,298,298,298,298,298,298,298,298,298,298,298
7.551,300.212,298.036,298,298,298,298,298,298,298,298,298,298,298,298,298,298,298,298,298,298
7.679,300.252,298.037,298,298,298,298,298,298,298,298,298,298,298,298,298,298,298,298,298,298
7.807,300.292,298.039,298,298,298,298,298,298,298,298,298,298,298,298,298,298,298,298,298,298
7.935,300.331,298.04,298,298,298,298,298,298,298,298,298,298,298,298,298,298,298,298,298,298
8.063,300.371,298.042,298,298,298,298,298,298,298,298,298,298,298,298,298,298,298,298,298,298
8.191,300.411,298.043,298,298,298,298,298,298,298,298,298,298,298,298,298,298,298,298,298,298
8.319,300.451,298.045,298,298,298,298,298,298,298,298,298,298,298,298,298,298,298,298,298,298
8.447,300.491,298.046,298,298,298,298,298,298,298,298,298,298,298,298,298,298,298,298,298,298
8.575,300.53,298.048,298.001,298,298,298,298,298,298,298,298,298,298,298,298,298,298,298,298,298
8.703,300.57,298.049,298.001,298,298,298,298,298,298,298,298,298,298,298,298,298,298,298,298,298
8.831,300.61,298.051,298.001,298,298,298,298,298,298,298,298,298,298,298,298,298,298,298,298,298
8.959,300.649,298.053,298.001,298,298,298,298,298,298,298,298,298,298,298,298,298,298,298,298,298
9.087,300.689,298.054,298.001,298,298,298,298,298,298,298,298,298,298,298,298,298,298,298,298,298
9.215,300.729,298.056,298.001,298,298,298,298,298,298,298,298,298,298,298,298,298,298,298,298,298
9.343,300.768,298.058,298.001,298,298,298,298,298,298,298,298,298,298,298,298,298,298,298,298,298
9.471,300.808,298.059,298.001,298,298,298,298,298,298,298,298,298,298,298,298,298,298,298,298,298
9.599,300.847,298.061,298.001,298,298,298,298,298,298,298,298,298,298,298,298,298,298,298,298,298
9.727,300.887,298.063,298.001,298,298,298,298,298,298,298,298,298,298,298,298,298,298,298,298,298
9.855,300.926,298.065,298.001,298,298,298,298,298,298,298,298,298,298,298,298,298,298,298,298,298
9.983,300.966,298.067,298.001,298,298,298,298,298,298,298,298,298,298,298,298,298,298,298,298,298
10.111,301.005,298.069,298.001,298,298,298,298,298,298,298,298,298,298,298,298,298,298,298,298,298
10.239,301.044,298.071,298.001,298,298,298,298,298,298,298,298,298,298,298,298,298,298,298,298,298
10.367,301.084,298.073,298.001,298,298,298,298,298,298,298,298,298,298,298,298,298,298,298,298,298
10.495,301.123,298.075,298.001,298,298,298,298,298,298,298,298,298,298,298,298,298,298,298,298,298
10.623,301.162,298.077,298.001,298,298,298,298,298,298,298,298,298,298,298,298,298,298,298,298,298
10.751,301.201,298.079,298.001,298,298,298,298,298,298,298,298,298,298,298,298,298,298,298,298,298
10.879,301.24,298.081,298.001,298,298,298,298,298,298,298,298,298,298,298,298,298,298,298,298,298
11.007,301.28,298.083,298.001,298,298,298,298,298,298,298,298,298,298,298,298,298,298,298,298,298
11.135,301.319,298.085,298.001,298,298,298,298,298,298,298,298,298,298,298,298,298,298,298,298,298
11.263,301.358,298.087,298.001,298,298,298,298,298,298,298,298,298,298,298,298,298,298,298,298,298
11.391,301.397,298.089,298.001,298,298,298,298,298,298,298,298,298,298,298,298,298,298,298,298,298
11.519,301.436,298.091,298.001,298,298,298,298,298,298,298,298,298,298,298,298,298,298,298,298,298
11.647,301.475,298.094,298.001,298,298,298,298,298,298,298,298,298,298,298,298,298,298,298,298,298
11.775,301.513,298.096,298.002,298,298,298,298,298,298,298,298,298,298,298,298,298,298,298,298,298
11.903,301.552,298.098,298.002,298,298,298,298,298,298,298,298,298,298,298,298,298,298,298,298,298
12.031,301.591,298.1,298.002,298,298,298,298,298,298,298,298,298,298,298,298,298,298,298,298,298
12.159,301.63,298.103,298.002,298,298,298,298,298,298,298,298,298,298,298,298,298,298,298,298,298
12.287,301.669,298.105,298.002,298,298,298,298,298,298,298,298,298,298,298,298,298,298,298,298,298
12.415,301.707,298.107,298.002,298,298,298,298,298,298,298,298,298,298,298,298,298,298,298,298,298
12.543,301.746,298.11,298.002,298,298,298,298,298,298,298,298,298,298,298,298,298,298,298,298,298
12.671,301.785,298.112,298.002,298,298,298,298,298,298,298,298,298,298,298,298,298,298,298,298,298
12.799,301.823,298.115,298.002,298,298,298,298,298,298,298,298,298,298,298,298,298,298,298,298,298
12.927,301.862,298.117,298.002,298,298,298,298,298,298,298,298,298,298,298,298,298,298,298,298,298
13.055,301.9,298.12,298.002,298,298,298,298,298,298,298,298,298,298,298,298,298,298,298,298,298
13.183,301.938,298.122,298.002,298,298,298,298,298,298,298,298,298,298,298,298,298,298,298,298,298
13.311,301.977,298.125,298.002,298,298,298,298,298,298,298,298,298,298,298,298,298,298,298,298,298
13.439,302.015,298.127,298.002,298,298,298,298,298,298,298,298,298,298,298,298,298,298,298,298,298
13.567,302.053,298.13,298.002,298,298,298,298,298,298,298,298,298,298,298,298,298,298,298,298,298
13.695,302.092,298.133,298.003,298,298,298,298,298,298,298,298,298,298,298,298,298,298,298,298,298
13.823,302.13,298.135,298.003,298,298,298,298,298,298,298,298,298,298,298,298,298,298,298,298,298
13.951,302.168,298.138,298.003,298,298,298,298,298,298,298,298,298,298,298,298,298,298,298,298,298
14.079,302.206,298.141,298.003,298,298,298,298,298,298,298,298,298,298,298,298,298,298,298,298,298
14.207,302.244,298.143,298.003,298,298,298,298,298,298,298,298,298,298,298,298,298,298,298,298,298
14.335,302.282,298.146,298.003,298,298,298,298,298,298,298,298,298,298,298,298,298,298,298,298,298
14.463,302.32,298.149,298.003,298,298,298,298,298,298,298,298,298,298,298,298,298,298,298,298,298
14.591,302.358,298.152,298.003,298,298,298,298,298,298,298,298,298,298,298,298,298,298,298,298,298
14.719,302.396,298.155,298.003,298,298,298,298,298,298,298,298,298,298,298,298,298,298,298,298,298
14.847,302.434,298.157,298.003,298,298,298,298,298,298,298,298,298,298,298,298,298,298,298,298,298
14.975,302.472,298.16,298.003,298,298,298,298,298,298,298,298,298,298,298,298,298,298,298,298,298
15.103,302.509,298.163,298.003,298,298,298,298,298,298,298,298,298,298,298,298,298,298,298,298,298
15.231,302.547,298.166,298.004,298,298,298,298,298,298,298,298,298,298,298,298,298,298,298,298,298
15.359,302.585,298.169,298.004,298,298,298,298,298,298,298,298,298,298,298,298,298,298,298,298,298
15.487,302.622,298.172,298.004,298,298,298,298,298,298,298,298,298,298,298,298,298,298,298,298,298
15.615,302.66,298.175,298.004,298,298,298,298,298,298,298,298,298,298,298,298,298,298,298,298,298
15.743,302.697,298.178,298.004,298,298,298,298,298,298,298,298,298,298,298,298,298,298,298,298,298
15.871,302.735,298.181,298.004,298,298,298,298,298,298,298,298,298,298,298,298,298,298,298,298,298
15.999,302.772,298.184,298.004,298,298,298,298,298,298,298,298,298,298,298,298,298,298,298,298,298
16.127,302.81,298.188,298.004,298,298,298,298,298,298,298,298,298,298,298,298,298,298,298,298,298
16.255,302.847,298.191,298.004,298,298,298,298,298,298,298,298,298,298,298,298,298,298,298,298,298
16.383,302.884,298.194,298.005,298,298,298,298,298,298,298,298,298,298,298,298,298,298,298,298,298
16.511,302.921,298.197,298.005,298,298,298,298,298,298,298,298,298,298,298,298,298,298,298,298,298
16.639,302.959,298.2,298.005,298,298,298,298,298,298,298,298,298,298,298,298,298,298,298,298,298
16.767,302.996,298.203,298.005,298,298,298,298,298,298,298,298,298,298,298,298,298,298,298,298,298
16.895,303.033,298.207,298.005,298,298,298,298,298,298,298,298,298,298,298,298,298,298,298,298,298
17.023,303.07,298.21,298.005,298,298,298,298,298,298,298,298,298,298,298,298,298,298,298,298,298
17.151,303.107,298.213,298.005,298,298,298,298,298,298,298,298,298,298,298,298,298,298,298,298,298
17.279,303.144,298.217,298.005,298,298,298,298,298,298,298,298,298,298,298,298,298,298,298,298,298
17.407,303.181,298.22,298.006,298,298,298,298,298,298,298,298,298,298,298,298,298,298,298,298,298
17.535,303.217,298.223,298.006,298,298,298,298,298,298,298,298,298,298,298,298,298,298,298,298,298
17.663,303.254,298.227,298.006,298,298,298,298,298,298,298,298,298,298,298,298,298,298,298,298,298
17.791,303.291,298.23,298.006,298,298,298,298,298,298,298,298,298,298,298,298,298,298,298,298,298
17.919,303.328,298.234,298.006,298,298,298,298,298,298,298,298,298,298,298,298,298,298,298,298,298
18.047,303.364,298.237,298.006,298,298,298,298,298,298,298,298,298,298,298,298,298,298,298,298,298
18.175,303.401,298.241,298.006,298,298,298,298,298,298,298,298,298,298,298,298,298,298,298,298,298
18.303,303.437,298.244,298.007,298,298,298,298,298,298,298,298,298,298,298,298,298,298,298,298,298
18.431,303.474,298.248,298.007,298,298,298,298,298,298,298,298,298,298,298,298,298,298,298,298,298
18.559,303.51,298.251,298.007,298,298,298,298,298,298,298,298,298,298,298,298,298,298,298,298,298
18.687,303.547,298.255,298.007,298,298,298,298,298,298,298,298,298,298,298,298,298,298,298,298,298
18.815,303.583,298.259,298.007,298,298,298,298,298,298,298,298,298,298,298,298,298,298,298,298,298
18.943,303.619,298.262,298.007,298,298,298,298,298,298,298,298,298,298,298,298,298,298,298,298,298
19.071,303.656,298.266,298.007,298,298,298,298,298,298,298,298,298,298,298,298,298,298,298,298,298
19.199,303.692,298.27,298.008,298,298,298,298,298,298,298,298,298,298,298,298,298,298,298,298,298
19.327,303.728,298.273,298.008,298,298,298,298,298,298,298,298,298,298,298,298,298,298,298,298,298
19.455,303.764,298.277,298.008,298,298,298,298,298,298,298,298,298,298,298,298,298,298,298,298,298
19.583,303.8,298.281,298.008,298,298,298,298,298,298,298,298,298,298,298,298,298,298,298,298,298
19.711,303.836,298.285,298.008,298,298,298,298,298,298,298,298,298,298,298,298,298,298,298,298,298
19.839,303.872,298.289,298.009,298,298,298,298,298,298,298,298,298,298,298,298,298,298,298,298,298
19.967,303.908,298.292,298.009,298,298,298,298,298,298,298,298,298,298,298,298,298,298,298,298,298
20.095,303.944,298.296,298.009,298,298,298,298,298,298,298,298,298,298,298,298,298,298,298,298,298
20.223,303.98,298.3,298.009,298,298,298,298,298,298,298,298,298,298,298,298,298,298,298,298,298
20.351,304.016,298.304,298.009,298,298,298,298,298,298,298,298,298,298,298,298,298,298,298,298,298
20.479,304.051,298.308,298.009,298,298,298,298,298,298,298,298,298,298,298,298,298,298,298,298,298
20.607,304.087,298.312,298.01,298,298,298,298,298,298,298,298,298,298,298,298,298,298,298,298,298
20.735,304.122,298.316,298.01,298,298,298,298,298,298,298,298,298,298,298,298,298,298,298,298,298
20.863,304.158,298.32,298.01,298,298,298,298,298,298,298,298,298,298,298,298,298,298,298,298,298
20.991,304.194,298.324,298.01,298,298,298,298,298,298,298,298,298,298,298,298,298,298,298,298,298
21.119,304.229,298.328,298.01,298,298,298,298,298,298,298,298,298,298,298,298,298,298,298,298,298
21.247,304.264,298.332,298.011,298,298,298,298,298,298,298,298,298,298,298,298,298,298,298,298,298
21.375,304.3,298.336,298.011,298,298,298,298,298,298,298,298,298,298,298,298,298,298,298,298,298
21.503,304.335,298.34,298.011,298,298,298,298,298,298,298,298,298,298,298,298,298,298,298,298,298
21.631,304.37,298.344,298.011,298,298,298,298,298,298,298,298,298,298,298,298,298,298,298,298,298
21.759,304.406,298.349,298.011,298,298,298,298,298,298,298,298,298,298,298,298,298,298,298,298,298
21.887,304.441,298.353,298.012,298,298,298,298,298,298,298,298,298,298,298,298,298,298,298,298,298
22.015,304.476,298.357,298.012,298,298,298,298,298,298,298,298,298,298,298,298,298,298,298,298,298
22.143,304.511,298.361,298.012,298,298,298,298,298,298,298,298,298,298,298,298,298,298,298,298,298
22.271,304.546,298.365,298.012,298,298,298,298,298,298,298,298,298,298,298,298,298,298,298,298,298
22.399,304.581,298.37,298.013,298,298,298,298,298,298,298,298,298,298,298,298,298,298,298,298,298
22.527,304.616,298.374,298.013,298,298,298,298,298,298,298,298,298,298,298,298,298,298,298,298,298
22.655,304.651,298.378,298.013,298,298,298,298,298,298,298,298,298,298,298,298,298,298,298,298,298
22.783,304.686,298.383,298.013,298,298,298,298,298,298,298,298,298,298,298,298,298,298,298,298,298
22.911,304.72,298.387,298.013,298,298,298,298,298,298,298,298,298,298,298,298,298,298,298,298,298
23.039,304.755,298.391,298.014,298,298,298,298,298,298,298,298,298,298,298,298,298,298,298,298,298
23.167,304.79,298.396,298.014,298,298,298,298,298,298,298,298,298,298,298,298,298,298,298,298,298
23.295,304.824,298.4,298.014,298,298,298,298,298,298,298,298,298,298,298,298,298,298,298,298,298
23.423,304.859,298.405,298.014,298,298,298,298,298,298,298,298,298,298,298,298,298,298,298,298,298
23.551,304.893,298.409,298.015,298,298,298,298,298,298,298,298,298,298,298,298,298,298,298,298,298
23.679,304.928,298.414,298.015,298,298,298,298,298,298,298,298,298,298,298,298,298,298,298,298,298
23.807,304.962,298.418,298.015,298,298,298,298,298,298,298,298,298,298,298,298,298,298,298,298,298
23.935,304.997,298.423,298.015,298,298,298,298,298,298,298,298,298,298,298,298,298,298,298,298,298
24.063,305.031,298.427,298.016,298,298,298,298,298,298,298,298,298,298,298,298,298,298,298,298,298
24.191,305.065,298.432,298.016,298,298,298,298,298,298,298,298,298,298,298,298,298,298,298,298,298
24.319,305.1,298.436,298.016,298,298,298,298,298,298,298,298,298,298,298,298,298,298,298,298,298
24.447,305.134,298.441,298.017,298,298,298,298,298,298,298,298,298,298,298,298,298,298,298,298,298
24.575,305.168,298.446,298.017,298,298,298,298,298,298,298,298,298,298,298,298,298,298,298,298,298
24.703,305.202,298.45,298.017,298,298,298,298,298,298,298,298,298,298,298,298,298,298,298,298,298
24.831,305.236,298.455,298.017,298,298,298,298,298,298,298,298,298,298,298,298,298,298,298,298,298
24.959,305.27,298.46,298.018,298,298,298,298,298,298,298,298,298,298,298,298,298,298,298,298,298
25.087,305.304,298.465,298.018,298,298,298,298,298,298,298,298,298,298,298,298,298,298,298,298,298
25.215,305.338,298.469,298.018,298,298,298,298,298,298,298,298,298,298,298,298,298,298,298,298,298
25.343,305.372,298.474,298.019,298,298,298,298,298,298,298,298,298,298,298,298,298,298,298,298,298
25.471,305.406,298.479,298.019,298.001,298,298,298,298,298,298,298,298,298,298,298,298,298,298,298,298
