t [s] | x [m]],0,1.75,3.5,5.25,7,8.75,10.5,12.25,14,15.75,17.5,19.25,21,22.75,24.5,26.25,28,29.75,31.5,33.25
0.001,0.00500194,8.86621e-06,6.9505e-06,2.24548e-08,-0,-0,-0,-0,-0,-0,-0,-0,-0,-0,-0,-0,-0,-0,-0,4.10636e-16
0.003,0.00500423,2.50345e-05,2.08129e-05,2.77185e-08,1.92611e-08,6.24281e-11,-0,-0,-0,-0,-0,-0,-0,-0,-0,-0,-0,-0,-0,4.10636e-16
0.007,0.00501052,5.89919e-05,4.83838e-05,5.11472e-08,1.34727e-07,1.09106e-10,1.06751e-10,3.47164e-13,-0,-0,-0,-0,-0,-0,-0,-0,-0,-0,-0,4.10636e-16
0.015,0.00502334,0.00012676,0.000102913,1.70068e-07,6.70721e-07,-8.20381e-10,1.60261e-09,3.69355e-13,1.18317e-12,3.84078e-15,-0,-0,-0,-0,-0,-0,-0,-0,-0,4.10636e-16
0.031,0.00506489,0.000273657,0.000204783,1.38042e-06,5.24975e-06,-4.97672e-08,6.69091e-08,-6.29379e-10,3.68602e-10,-2.00318e-12,8.18086e-13,-1.06688e-15,4.26754e-16,-0,-0,-0,-0,-0,-0,4.10636e-16
0.063,0.00513927,0.000545371,0.000392084,9.11342e-06,2.12895e-05,-6.91895e-07,1.06036e-06,-4.94877e-08,3.13934e-08,-1.62284e-09,6.25983e-10,-2.46081e-11,6.82592e-12,-1.59179e-13,3.47804e-14,-6.4013e-16,-0,-0,-0,4.10636e-16
0.127,0.00530357,0.0010574,0.000711263,4.20353e-05,7.35746e-05,-1.96047e-06,7.11002e-06,-1.02035e-06,7.6618e-07,-1.08829e-07,5.18048e-08,-7.64349e-09,2.74318e-09,-4.13122e-10,1.12202e-10,-1.34212e-11,2.97746e-12,-2.89552e-13,5.14238e-14,-3.28509e-15
0.255,0.00566061,0.00194296,0.00119321,0.000182221,0.000215654,-1.98078e-06,3.78312e-05,-4.80212e-06,6.53223e-06,-2.16403e-06,1.67905e-06,-4.4859e-07,1.22668e-07,-3.86492e-08,5.1625e-08,-3.16244e-08,1.56324e-08,-6.34828e-09,2.45235e-09,-6.26277e-10
0.383,0.00602059,0.00269629,0.00157371,0.000378665,0.000366122,1.4203e-05,8.23912e-05,-1.20803e-05,1.98858e-05,-6.00972e-06,4.71305e-06,-1.67741e-06,1.02103e-06,-4.3607e-07,2.59215e-07,-1.27948e-07,6.99583e-08,-3.34687e-08,1.60794e-08,-4.97637e-09
0.511,0.00636706,0.00332876,0.00188955,0.000615768,0.000511086,4.9539e-05,0.000136203,-1.78805e-05,3.89369e-05,-1.21124e-05,1.08829e-05,-4.36366e-06,2.94855e-06,-1.34971e-06,8.13608e-07,-4.08967e-07,2.31009e-07,-1.16629e-07,6.26605e-08,-2.16585e-08
0.639,0.00668936,0.00385534,0.00216725,0.000877022,0.000643453,0.000106455,0.000195034,-1.93636e-05,6.21764e-05,-1.94305e-05,2.0233e-05,-8.6758e-06,6.37593e-06,-3.13793e-06,1.98915e-06,-1.03723e-06,6.06748e-07,-3.20428e-07,1.83786e-07,-6.6978e-08
0.767,0.00698287,0.0042944,0.00242147,0.00114542,0.000766187,0.000185241,0.000252172,-1.30172e-05,8.84938e-05,-2.7002e-05,3.24871e-05,-1.45431e-05,1.15635e-05,-5.99562e-06,4.01673e-06,-2.19682e-06,1.34601e-06,-7.42018e-07,4.47238e-07,-1.6944e-07
0.895,0.00724588,0.00466173,0.00266146,0.00141022,0.000881787,0.000282518,0.000305714,3.37301e-06,0.000115503,-3.29708e-05,4.68933e-05,-2.15633e-05,1.85813e-05,-1.00576e-05,7.11877e-06,-4.06911e-06,2.61017e-06,-1.49841e-06,9.46109e-07,-3.7103e-07
1.023,0.00747896,0.00497136,0.00289194,0.00166415,0.000993533,0.000393831,0.000355301,3.07572e-05,0.000141312,-3.55142e-05,6.23506e-05,-2.89695e-05,2.72093e-05,-1.52706e-05,1.14239e-05,-6.79798e-06,4.55948e-06,-2.71783e-06,1.79429e-06,-7.26492e-07
1.151,0.00768409,0.00523521,0.00311478,0.00190297,0.00110444,0.000514453,0.000401716,6.89269e-05,0.000164727,-3.31367e-05,7.76634e-05,-3.57661e-05,3.69639e-05,-2.13663e-05,1.6919e-05,-1.04457e-05,7.32085e-06,-4.51957e-06,3.11592e-06,-1.30021e-06
1.279,0.00786399,0.00546303,0.00333022,0.00212483,0.00121675,0.000639993,0.000446417,0.000116762,0.000185293,-2.48502e-05,9.17616e-05,-4.08918e-05,4.71774e-05,-2.7879e-05,2.34295e-05,-1.49599e-05,1.09557e-05,-6.98922e-06,5.02871e-06,-2.15982e-06
1.407,0.00802169,0.00566254,0.00353774,0.00232959,0.00133178,0.000766763,0.000491109,0.000172544,0.000203215,-1.02403e-05,0.000103858,-4.33748e-05,5.71053e-05,-3.4201e-05,3.06287e-05,-2.01592e-05,1.54359e-05,-1.01546e-05,7.6236e-06,-3.36707e-06
1.535,0.00816019,0.00583974,0.00373656,0.00251822,0.00144996,0.000891951,0.000537409,0.000234264,0.000219198,1.05618e-05,0.00011353,-4.24548e-05,6.60372e-05,-3.96587e-05,3.8075e-05,-2.574e-05,2.06321e-05,-1.39677e-05,1.09445e-05,-4.96729e-06
1.663,0.00828229,0.00600031,0.00392645,0.00269,0.00157121,0.00101602,0.000585673,0.000298666,0.000235114,3.71659e-05,0.000120445,-3.75965e-05,7.34045e-05,-4.36064e-05,4.52664e-05,-3.12986e-05,2.63176e-05,-1.83008e-05,1.49769e-05,-6.98097e-06
1.791,0.00839065,0.00614639,0.00410606,0.00284953,0.00169518,0.00113465,0.000637613,0.000365823,0.000251035,6.82266e-05,0.000125375,-2.87052e-05,7.87718e-05,-4.54524e-05,5.16965e-05,-3.63832e-05,3.21831e-05,-2.29311e-05,1.96222e-05,-9.39045e-06
1.919,0.00848736,0.00628043,0.00427542,0.00299862,0.00182061,0.00124749,0.000693917,0.00043395,0.000268004,0.000102839,0.000128827,-1.59566e-05,8.20167e-05,-4.47912e-05,5.69203e-05,-4.05302e-05,3.78755e-05,-2.75786e-05,2.47129e-05,-1.21384e-05
2.047,0.00857419,0.00640428,0.00443474,0.00313886,0.00194627,0.00135474,0.000754752,0.000501677,0.000286985,0.000139985,0.000131471,2.6054e-07,8.32285e-05,-4.1403e-05,6.0605e-05,-4.33175e-05,4.30293e-05,-3.19217e-05,3.00178e-05,-1.51276e-05
2.175,0.00865265,0.00651937,0.00458447,0.00327156,0.00207102,0.00145688,0.000819873,0.000568067,0.000308753,0.000178653,0.00013406,1.93936e-05,8.26848e-05,-3.52563e-05,6.25573e-05,-4.44043e-05,4.73037e-05,-3.56266e-05,3.52587e-05,-1.8225e-05
2.303,0.00872397,0.00662676,0.00472514,0.00339781,0.00219394,0.00155453,0.00088875,0.000632578,0.00033383,0.000217939,0.000137348,4.07881e-05,8.08114e-05,-2.64946e-05,6.27348e-05,-4.35596e-05,5.04158e-05,-3.83775e-05,4.01334e-05,-2.12702e-05
2.431,0.00878917,0.0067273,0.00485736,0.00351841,0.00231429,0.00164839,0.000960691,0.000694994,0.000362479,0.000257104,0.000142023,6.37537e-05,7.81339e-05,-1.54075e-05,6.12408e-05,-4.06772e-05,5.21656e-05,-3.99057e-05,4.43413e-05,-2.40862e-05
2.559,0.00884909,0.0068217,0.00498179,0.00363401,0.00243155,0.00173907,0.00103493,0.000755346,0.000394721,0.000295609,0.000148654,8.76234e-05,7.52242e-05,-2.393e-06,5.83068e-05,-3.57774e-05,5.24512e-05,-4.00119e-05,4.7609e-05,-2.64928e-05
2.687,0.0089044,0.00691051,0.00509906,0.00374509,0.0025454,0.00182712,0.00111073,0.000813832,0.000430381,0.000333114,0.000157659,0.000111803,7.26504e-05,1.20859e-05,5.42641e-05,-2.89975e-05,5.12746e-05,-3.8582e-05,4.97131e-05,-2.83197e-05
2.815,0.00895568,0.00699423,0.00520978,0.00385199,0.00265565,0.00191299,0.0011874,0.000870738,0.00046914,0.000369461,0.000169294,0.000135803,7.09341e-05,2.7544e-05,4.95107e-05,-2.05719e-05,4.87364e-05,-3.5593e-05,5.04981e-05,-2.9419e-05
2.943,0.00900339,0.00707328,0.0053145,0.003955,0.00276224,0.00199701,0.00126434,0.000926388,0.000510586,0.000404642,0.000183664,0.00015926,7.05176e-05,4.35122e-05,4.44755e-05,-1.08075e-05,4.50229e-05,-3.11117e-05,4.98878e-05,-2.96751e-05
3.071,0.00904793,0.00714804,0.00541375,0.00405433,0.00286521,0.00207941,0.00134107,0.000981099,0.000554263,0.000438761,0.000200733,0.000181934,7.17437e-05,5.95694e-05,3.95854e-05,-5.42438e-08,4.03876e-05,-2.52845e-05,4.78892e-05,-2.90121e-05
3.199,0.00908964,0.00721886,0.00550799,0.00415017,0.00296466,0.00216036,0.0014172,0.00103515,0.000599712,0.000471998,0.000220361,0.00020371,7.48469e-05,7.53647e-05,3.52356e-05,1.1323e-05,3.51285e-05,-1.83229e-05,4.45904e-05,-2.73974e-05
3.327,0.00912878,0.00728603,0.00559764,0.00424266,0.00306071,0.00223995,0.00149245,0.00108877,0.000646498,0.000504571,0.000242326,0.000224572,7.99545e-05,9.06302e-05,3.17682e-05,2.29707e-05,2.9565e-05,-1.04838e-05,4.01512e-05,-2.48423e-05
3.455,0.00916562,0.00734983,0.00568305,0.00433196,0.00315353,0.00231823,0.00156663,0.00114214,0.00069423,0.000536711,0.000266355,0.000244588,8.70963e-05,0.000105186,2.94567e-05,3.45684e-05,2.40151e-05,-2.0485e-06,3.47902e-05,-2.13988e-05
3.583,0.00920036,0.00741052,0.00576457,0.0044182,0.00324328,0.0023952,0.0016396,0.00119536,0.000742572,0.000568638,0.000292154,0.000263886,9.62192e-05,0.000118936,2.8499e-05,4.58444e-05,1.87768e-05,6.69727e-06,2.87678e-05,-1.71543e-05
3.711,0.00923319,0.00746832,0.00584248,0.0045015,0.00333012,0.00247088,0.0017113,0.00124851,0.000791247,0.000600544,0.000319425,0.000282629,0.000107205,0.000131859,2.9016e-05,5.65866e-05,1.41123e-05,1.54824e-05,2.23683e-05,-1.22239e-05
3.839,0.00926426,0.00752344,0.00591705,0.00458199,0.00341421,0.00254525,0.00178169,0.00130163,0.000840034,0.00063259,0.000347886,0.000301001,0.000119891,0.000143998,3.10573e-05,6.66464e-05,1.02377e-05,2.40654e-05,1.58819e-05,-6.74176e-06
3.967,0.00929373,0.00757607,0.00598849,0.00465981,0.0034957,0.0026183,0.00185076,0.00135469,0.000888765,0.000664897,0.000377281,0.000319183,0.000134085,0.000155443,3.46092e-05,7.59378e-05,7.31705e-06,3.22459e-05,9.58805e-06,-8.52045e-07
4.095,0.00932171,0.00762638,0.00605704,0.00473506,0.00357472,0.00269001,0.00191854,0.00140768,0.000937315,0.00069755,0.000407387,0.000337346,0.000149583,0.000166317,3.96066e-05,8.44334e-05,5.46103e-06,3.98712e-05,3.74203e-06,5.29978e-06
4.223,0.00934833,0.00767453,0.00612286,0.00480786,0.00365141,0.00276037,0.00198505,0.00146056,0.000985597,0.000730599,0.000438016,0.00035564,0.000166183,0.000176763,4.59456e-05,9.21556e-05,4.72903e-06,4.68397e-05,-1.43621e-06,1.15749e-05
4.351,0.00937368,0.00772066,0.00618614,0.00487833,0.00372587,0.00282939,0.00205033,0.00151328,0.00103355,0.000764066,0.000469015,0.00037419,0.000183694,0.000186929,5.34963e-05,9.91678e-05,5.13446e-06,5.30991e-05,-5.76902e-06,1.78475e-05
4.479,0.00939786,0.00776489,0.00624703,0.00494657,0.00379823,0.00289707,0.00211441,0.00156578,0.00108115,0.000797948,0.000500264,0.000393094,0.000201942,0.00019696,6.21143e-05,0.000105564,6.65181e-06,5.86432e-05,-9.12471e-06,2.401e-05
4.607,0.00942095,0.00780736,0.00630568,0.00501269,0.00386856,0.00296342,0.00217733,0.00161802,0.00112835,0.000832224,0.000531673,0.000412423,0.000220776,0.000206992,7.1651e-05,0.000111457,9.22478e-06,6.35051e-05,-1.14181e-05,2.9976e-05
4.735,0.00944303,0.00784816,0.0063622,0.00507678,0.00393697,0.00302845,0.00223913,0.00166994,0.00117517,0.000866861,0.000563174,0.000432223,0.000240068,0.000217144,8.19619e-05,0.000116973,1.27748e-05,6.77499e-05,-1.2608e-05,3.56819e-05
4.863,0.00946415,0.0078874,0.00641673,0.00513893,0.00400354,0.00309218,0.00229983,0.00172151,0.00122159,0.000901818,0.000594721,0.000452517,0.000259716,0.000227514,9.29127e-05,0.000122237,1.7209e-05,7.14661e-05,-1.26933e-05,4.10872e-05
4.991,0.0094844,0.00792517,0.00646938,0.00519924,0.00406835,0.00315463,0.00235947,0.00177268,0.00126761,0.000937048,0.00062628,0.000473312,0.000279635,0.000238184,0.000104383,0.000127374,2.24277e-05,7.47578e-05,-1.17063e-05,4.61732e-05
5.119,0.00950381,0.00796155,0.00652024,0.00525779,0.00413147,0.00321584,0.00241808,0.00182342,0.00131323,0.000972504,0.00065783,0.000494599,0.000299765,0.000249213,0.000116271,0.000132497,2.83301e-05,7.77366e-05,-9.70647e-06,5.09409e-05
5.247,0.00952244,0.00799663,0.00656941,0.00531465,0.00419296,0.00327582,0.00247568,0.0018737,0.00135847,0.00100814,0.00068936,0.000516359,0.000320059,0.000260644,0.00012849,0.000137708,3.48196e-05,8.05153e-05,-6.77335e-06,5.54082e-05
5.375,0.00954034,0.00803046,0.00661698,0.0053699,0.0042529,0.0033346,0.0025323,0.00192351,0.00140332,0.0010439,0.00072086,0.000538566,0.000340486,0.000272504,0.000140971,0.000143093,4.18071e-05,8.32023e-05,-2.99941e-06,5.96065e-05
5.503,0.00955756,0.00806313,0.00666304,0.0054236,0.00431135,0.00339221,0.00258797,0.00197282,0.00144779,0.00107976,0.000752327,0.000561187,0.000361024,0.000284805,0.000153663,0.000148724,4.92132e-05,8.58974e-05,1.51607e-06,6.35778e-05
5.631,0.00957412,0.00809469,0.00670765,0.00547583,0.00436835,0.00344868,0.0026427,0.00202161,0.00149187,0.00111567,0.000783757,0.000584189,0.000381661,0.000297549,0.000166528,0.000154658,5.69695e-05,8.86891e-05,6.67249e-06,6.7371e-05
5.759,0.00959007,0.0081252,0.00675089,0.00552665,0.00442398,0.00350404,0.00269651,0.00206989,0.00153557,0.0011516,0.000815147,0.000607537,0.00040239,0.000310731,0.000179539,0.000160938,6.50191e-05,9.16527e-05,1.23725e-05,7.10388e-05
5.887,0.00960545,0.00815471,0.00679282,0.00557611,0.00447827,0.00355832,0.00274943,0.00211764,0.00157889,0.00118752,0.000846495,0.000631196,0.000423207,0.000324337,0.000192681,0.000167593,7.3316e-05,9.48501e-05,1.85252e-05,7.46357e-05
6.015,0.00962027,0.00818328,0.0068335,0.00562427,0.00453128,0.00361154,0.00280147,0.00216485,0.00162182,0.00122339,0.000877799,0.000655133,0.000444113,0.000338351,0.000205945,0.000174642,8.18245e-05,9.83294e-05,2.5049e-05,7.82149e-05
6.143,0.00963458,0.00821094,0.006873,0.00567119,0.00458306,0.00366373,0.00285266,0.00221153,0.00166438,0.0012592,0.000909054,0.000679317,0.000465107,0.000352753,0.000219327,0.000182093,9.05177e-05,0.000102126,3.18728e-05,8.1827e-05
6.271,0.0096484,0.00823775,0.00691137,0.0057169,0.00463364,0.00371492,0.00290301,0.00225766,0.00170655,0.00129492,0.000940256,0.00070372,0.000486191,0.000367521,0.00023283,0.000189949,9.93765e-05,0.000106265,3.89366e-05,8.55187e-05
6.399,0.00966175,0.00826373,0.00694865,0.00576147,0.00468308,0.00376514,0.00295255,0.00230326,0.00174834,0.00133053,0.0009714,0.000728314,0.000507367,0.000382636,0.000246458,0.000198204,0.000108388,0.00011076,4.61917e-05,8.93319e-05
6.527,0.00967466,0.00828894,0.0069849,0.00580493,0.00473141,0.0038144,0.00300128,0.00234832,0.00178974,0.00136602,0.00100248,0.000753076,0.000528634,0.000398075,0.000260214,0.00020685,0.000117545,0.000115619,5.36003e-05,9.33031e-05
6.655,0.00968714,0.0083134,0.00702016,0.00584732,0.00477866,0.00386275,0.00304922,0.00239284,0.00183076,0.00140137,0.00103349,0.000777983,0.000549992,0.000413817,0.000274106,0.000215874,0.000126843,0.00012084,6.11342e-05,9.74632e-05
6.783,0.00969923,0.00833716,0.00705447,0.0058887,0.00482489,0.0039102,0.0030964,0.00243683,0.00187139,0.00143657,0.00106443,0.000803016,0.00057144,0.000429845,0.000288137,0.000225263,0.000136281,0.000126419,6.87739e-05,0.000101838
6.911,0.00971093,0.00836023,0.00708787,0.00592909,0.00487012,0.00395677,0.00314283,0.00248029,0.00191164,0.00147161,0.00109529,0.000828157,0.000592978,0.00044614,0.000302314,0.000235002,0.00014586,0.000132348,7.65075e-05,0.000106447
7.039,0.00972226,0.00838265,0.0071204,0.00596852,0.00491438,0.00400249,0.00318853,0.00252322,0.0019515,0.00150647,0.00112606,0.00085339,0.000614601,0.000462684,0.00031664,0.000245073,0.000155582,0.000138616,8.4329e-05,0.000111307
7.167,0.00973325,0.00840445,0.00715209,0.00600705,0.00495771,0.00404738,0.00323351,0.00256563,0.00199099,0.00154116,0.00115674,0.0008787,0.000636307,0.000479462,0.000331116,0.000255462,0.00016545,0.00014521,9.22374e-05,0.00011643
7.295,0.00974391,0.00842565,0.00718298,0.00604469,0.00500014,0.00409146,0.00327779,0.00260753,0.00203009,0.00157565,0.00118732,0.000904073,0.000658092,0.00049646,0.000345746,0.000266153,0.000175467,0.000152119,0.000100235,0.000121822
7.423,0.00975424,0.00844628,0.0072131,0.00608148,0.00504169,0.00413476,0.00332137,0.00264891,0.0020688,0.00160995,0.0012178,0.000929498,0.000679952,0.000513663,0.00036053,0.000277132,0.000185634,0.000159329,0.000108328,0.000127489
7.551,0.00976427,0.00846636,0.00724248,0.00611745,0.0050824,0.00417729,0.00336429,0.00268979,0.00210714,0.00164405,0.00124817,0.000954963,0.000701883,0.000531061,0.000375466,0.000288383,0.000195957,0.000166828,0.000116523,0.000133433
7.679,0.00977401,0.00848592,0.00727114,0.00615263,0.00512229,0.00421907,0.00340655,0.00273016,0.00214511,0.00167794,0.00127842,0.000980458,0.00072388,0.00054864,0.000390555,0.000299895,0.000206435,0.000174606,0.000124828,0.000139654
7.807,0.00978347,0.00850496,0.00729912,0.00618704,0.00516139,0.00426013,0.00344817,0.00277005,0.0021827,0.00171162,0.00130856,0.00100597,0.000745937,0.00056639,0.000405793,0.000311655,0.000217073,0.000182651,0.000133252,0.000146151
7.935,0.00979266,0.00852352,0.00732643,0.00622072,0.00519971,0.00430048,0.00348915,0.00280944,0.00221991,0.00174508,0.00133858,0.0010315,0.000768051,0.000584301,0.000421178,0.000323652,0.00022787,0.000190953,0.000141803,0.000152921
8.063,0.00980159,0.00854161,0.00735311,0.00625367,0.00523729,0.00434014,0.00352952,0.00284836,0.00225676,0.00177833,0.00136847,0.00105703,0.000790215,0.000602363,0.000436708,0.000335876,0.000238828,0.000199506,0.00015049,0.000159961
8.191,0.00981028,0.00855925,0.00737917,0.00628594,0.00527415,0.00437912,0.00356929,0.0028868,0.00229324,0.00181135,0.00139823,0.00108256,0.000812425,0.000620567,0.000452378,0.000348317,0.000249948,0.000208299,0.000159319,0.000167266
8.319,0.00981873,0.00857646,0.00740464,0.00631753,0.00531031,0.00441746,0.00360847,0.00292477,0.00232935,0.00184415,0.00142786,0.00110807,0.000834675,0.000638905,0.000468184,0.000360965,0.00026123,0.000217328,0.000168298,0.000174831
8.447,0.00982695,0.00859325,0.00742954,0.00634848,0.00534578,0.00445515,0.00364707,0.00296228,0.0023651,0.00187672,0.00145735,0.00113357,0.000856961,0.000657368,0.000484124,0.000373814,0.000272674,0.000226585,0.000177433,0.000182653
8.575,0.00983495,0.00860963,0.00745388,0.0063788,0.0053806,0.00449222,0.00368511,0.00299933,0.0024005,0.00190907,0.00148671,0.00115905,0.000879278,0.000675949,0.000500192,0.000386856,0.000284279,0.000236066,0.000186728,0.000190725
8.703,0.00984273,0.00862563,0.00747769,0.00640851,0.00541477,0.00452868,0.0037226,0.00303594,0.00243555,0.00194118,0.00151592,0.00118449,0.000901621,0.00069464,0.000516385,0.000400084,0.000296045,0.000245764,0.000196189,0.000199044
8.831,0.00985032,0.00864125,0.00750099,0.00643763,0.00544832,0.00456455,0.00375954,0.00307211,0.00247024,0.00197307,0.00154499,0.0012099,0.000923985,0.000713434,0.000532698,0.00041349,0.000307971,0.000255676,0.000205818,0.000207604
8.959,0.0098577,0.00865651,0.00752379,0.00646618,0.00548126,0.00459984,0.00379596,0.00310784,0.00250458,0.00200473,0.00157392,0.00123527,0.000946366,0.000732326,0.000549128,0.00042707,0.000320056,0.000265798,0.000215619,0.0002164
9.087,0.0098649,0.00867142,0.0075461,0.00649418,0.00551362,0.00463457,0.00383185,0.00314314,0.00253859,0.00203615,0.0016027,0.00126059,0.00096876,0.000751308,0.000565671,0.000440818,0.000332299,0.000276124,0.000225592,0.000225428
9.215,0.00987192,0.00868599,0.00756794,0.00652164,0.0055454,0.00466875,0.00386724,0.00317803,0.00257225,0.00206735,0.00163133,0.00128587,0.000991163,0.000770375,0.000582322,0.000454728,0.000344697,0.000286653,0.00023574,0.000234683
9.343,0.00987876,0.00870023,0.00758934,0.00654858,0.00557662,0.00470239,0.00390214,0.00321249,0.00260558,0.00209831,0.00165981,0.00131109,0.00101357,0.000789521,0.000599077,0.000468796,0.000357251,0.00029738,0.000246062,0.000244161
9.471,0.00988542,0.00871416,0.00761029,0.00657501,0.0056073,0.00473551,0.00393655,0.00324655,0.00263858,0.00212905,0.00168814,0.00133626,0.00103598,0.00080874,0.000615934,0.000483016,0.000369957,0.000308301,0.000256561,0.000253857
9.599,0.00989193,0.00872778,0.00763083,0.00660095,0.00563746,0.00476811,0.00397048,0.00328021,0.00267125,0.00215955,0.00171632,0.00136136,0.00105838,0.000828028,0.000632888,0.000497383,0.000382814,0.000319413,0.000267234,0.000263768
9.727,0.00989827,0.0087411,0.00765095,0.00662641,0.0056671,0.00480022,0.00400394,0.00331348,0.0027036,0.00218983,0.00174434,0.00138641,0.00108078,0.00084738,0.000649935,0.000511895,0.00039582,0.000330714,0.000278082,0.00027389
9.855,0.00990446,0.00875414,0.00767067,0.00665141,0.00569624,0.00483183,0.00403695,0.00334635,0.00273563,0.00221987,0.00177221,0.00141138,0.00110317,0.000866791,0.000667073,0.000526546,0.000408973,0.000342199,0.000289104,0.000284219
9.983,0.00991051,0.0087669,0.00769,0.00667595,0.0057249,0.00486298,0.00406952,0.00337885,0.00276734,0.00224969,0.00179993,0.00143629,0.00112555,0.000886256,0.000684298,0.000541333,0.000422271,0.000353866,0.000300299,0.00029475
10.111,0.0099164,0.00877939,0.00770896,0.00670006,0.00575308,0.00489365,0.00410164,0.00341097,0.00279874,0.00227929,0.00182749,0.00146112,0.00114791,0.000905773,0.000701606,0.000556251,0.000435712,0.000365711,0.000311665,0.000305481
